TIME,POWER,TEMP
0.825,3.068031145599568,43.138999999999996
0.8416666666666667,3.121199450940959,43.232000000000006
0.8583333333333333,3.1723138365270476,43.324
0.875,3.2228163543701682,43.42100000000001
0.8916666666666667,3.2747512161085557,43.50899999999999
0.9083333333333333,3.325127745438977,43.618
0.925,3.376600251103467,43.73
0.9416666666666668,3.428873388381496,43.827
0.9583333333333333,3.478167038170456,43.93899999999999
0.975,3.530206223073085,44.041000000000004
0.9916666666666667,3.5824298955959586,44.158
1.0083333333333333,3.631889084133576,44.285
1.025,3.6842574179855636,44.412
1.0416666666666667,3.7357486946257383,44.523999999999994
1.0583333333333333,3.786032337973134,44.646
1.075,3.8383450210835366,44.773
1.0916666666666668,3.888747208057091,44.909
1.1083333333333334,3.939789237512228,45.05
1.125,3.9926676359065345,45.181999999999995
1.1416666666666666,4.041860499370716,45.324
1.1583333333333332,4.093993223543658,45.455
1.175,4.1463855427582805,45.596
1.1916666666666667,4.195784384524544,45.742
1.2083333333333333,4.248219656014299,45.87799999999999
1.225,4.299791527586593,46.019
1.2416666666666667,4.350246898516985,46.151
1.2583333333333333,4.402488608099305,46.297
1.275,4.452403355061353,46.438
1.2916666666666665,4.504197275034518,46.58
1.3083333333333333,4.557188947999434,46.711999999999996
1.325,4.606644158778679,46.84400000000001
1.3416666666666668,4.659119338537514,46.97599999999999
1.3583333333333334,4.711197639187294,47.098
1.375,4.761471344935549,47.24400000000001
1.3916666666666666,4.813987549480199,47.376000000000005
1.4083333333333332,4.865484588197298,47.508
1.425,4.91612191834882,47.659000000000006
1.4416666666666667,4.9686100765044126,47.8
1.4583333333333335,5.019134183661314,47.937
1.475,5.070762847627125,48.07900000000001
1.4916666666666665,5.123170962395737,48.206
1.508333333333333,5.120907766817984,48.333
1.525,5.124625861941554,48.45
1.5416666666666665,5.125178661454523,48.553000000000004
1.5583333333333333,5.1231977601791,48.646
1.575,5.127121966668131,48.736000000000004
1.5916666666666668,5.127183040066303,48.834
1.6083333333333334,5.12718211765635,48.922
1.625,5.129147370883468,48.995
1.6416666666666666,5.127267013534381,49.078
1.6583333333333332,5.12914865290868,49.16000000000001
1.675,5.1333669806385025,49.230999999999995
1.6916666666666667,5.134339383317511,49.304
1.7083333333333335,5.141034075994367,49.37700000000001
1.725,5.142079661792931,49.445
1.7416666666666665,5.136103532409286,49.518
1.758333333333333,5.1361560907499335,49.58200000000001
1.775,5.132421444033484,49.650999999999996
1.7916666666666665,5.131102072125855,49.724
1.8083333333333333,5.133227136977102,49.787
1.825,5.131717214851083,49.841
1.8416666666666668,5.133572511807017,49.900000000000006
1.8583333333333334,5.1353308936383675,49.958999999999996
1.875,5.133441787715176,50.016999999999996
1.8916666666666666,5.136840059400822,50.075
1.9083333333333332,5.13827944560808,50.139
1.925,5.136646960331641,50.20700000000001
1.9416666666666667,5.139951381273046,50.27
1.9583333333333335,5.1397595703157775,50.31399999999999
1.975,5.139557517718653,50.382
1.991666666666667,5.141353149251405,50.446999999999996
2.0083333333333333,5.1393502978321886,50.505
2.025,5.141810108060842,50.558
2.0416666666666665,5.141848762112638,50.620999999999995
2.0583333333333336,5.139471378126071,50.674
2.075,5.142776795103693,50.727
2.091666666666667,5.143882420031197,50.783
2.1083333333333334,5.141533100785466,50.83200000000001
2.125,5.144839317072159,50.88
2.1416666666666666,5.1444030109852,50.923
2.158333333333333,5.1441285640324255,50.967000000000006
2.175,5.146516647165803,51.01
2.1916666666666664,5.144838396240058,51.053000000000004
2.2083333333333335,5.147126390171858,51.101000000000006
2.225,5.148617387521836,51.14
2.2416666666666667,5.145994054481303,51.193000000000005
2.2583333333333333,5.149182247209668,51.23700000000001
2.275,5.1495887291514375,51.281000000000006
2.2916666666666665,5.147818285194135,51.334
2.3083333333333336,5.1513142161134216,51.37700000000001
2.325,5.150296783412009,51.406000000000006
2.341666666666667,5.150208649574562,51.445
2.3583333333333334,5.153072119870149,51.503
2.375,5.150815545093049,51.56100000000001
2.3916666666666666,5.15289123237426,51.614000000000004
2.408333333333333,5.154637236874245,51.658
2.425,5.152050204325658,51.69200000000001
2.4416666666666664,5.154157560400336,51.736000000000004
2.4583333333333335,5.15199978077463,51.785
2.475,5.145945756134335,51.833
2.4916666666666667,5.146437456034629,51.88700000000001
2.5083333333333333,5.145110980755113,51.945
2.525,5.144373884865267,51.989000000000004
2.5416666666666665,5.146326092251999,52.033
2.5583333333333336,5.1452400729709,52.101000000000006
2.575,5.145982351495872,52.145
2.591666666666667,5.146947804571412,52.184000000000005
2.608333333333333,5.144675693648819,52.238
2.625,5.1478808275283505,52.272000000000006
2.641666666666667,5.148621558911644,52.306000000000004
2.658333333333333,5.1464402963347995,52.36
2.675,5.14974998360069,52.39900000000001
2.691666666666667,5.1492648147044076,52.448
2.708333333333333,5.148480134375146,52.49700000000001
2.725,5.152965859900295,52.531000000000006
2.7416666666666667,5.154444871454626,52.575
2.7583333333333333,5.1590654773833045,52.614000000000004
2.775,5.161195631793436,52.653
2.791666666666667,5.157913162362218,52.69700000000001
2.808333333333333,5.16116509486166,52.721000000000004
2.825,5.161454702182887,52.765
2.841666666666667,5.158715218406281,52.809000000000005
2.858333333333333,5.162119311735109,52.843
2.875,5.161796088665728,52.882000000000005
2.891666666666667,5.16060117401964,52.926
2.908333333333333,5.163183008785616,52.96
2.925,5.161999871786742,52.999
2.941666666666667,5.163278262084223,53.043
2.958333333333333,5.164308522117526,53.077000000000005
2.975,5.161197096222249,53.123000000000005
2.9916666666666667,5.16415952973843,53.167
3.0083333333333333,5.164397105001294,53.206
3.025,5.162327441001663,53.25
3.041666666666667,5.1648525376990255,53.288999999999994
3.058333333333333,5.164360131219455,53.323
3.075,5.1637999593602775,53.367
3.091666666666667,5.1655346827497475,53.391999999999996
3.108333333333333,5.164014108321056,53.43600000000001
3.125,5.165236305596117,53.479
3.141666666666667,5.167061185797786,53.51299999999999
3.158333333333333,5.165017476692675,53.552
3.175,5.167883230916122,53.58599999999999
3.191666666666667,5.167980372012376,53.625
3.208333333333333,5.165239759414026,53.653999999999996
3.225,5.168568801780072,53.67799999999999
3.2416666666666667,5.168046879378506,53.717
3.2583333333333333,5.1671627679658085,53.745999999999995
3.275,5.169886814284081,53.79
3.291666666666667,5.16831487670148,53.824
3.308333333333333,5.169160848908903,53.85799999999999
3.325,5.171053245512233,53.892999999999994
3.341666666666667,5.165596760812003,53.928000000000004
3.358333333333333,5.164842135301687,53.961999999999996
3.375,5.161867193037873,53.99099999999999
3.391666666666667,5.159035281638329,54.03900000000001
3.408333333333333,5.1622932607101895,54.054
3.425,5.161433896153317,54.088
3.441666666666667,5.1605251252384905,54.12700000000001
3.458333333333333,5.163099249836024,54.15200000000001
3.475,5.161498790420068,54.17700000000001
3.4916666666666667,5.162347277735924,54.206
3.5083333333333333,5.164876081259146,54.245
3.525,5.161628355905983,54.284000000000006
3.541666666666667,5.165305479129058,54.309000000000005
3.558333333333333,5.16620309213393,54.348
3.575,5.163903730690572,54.372
3.591666666666667,5.167012761224075,54.40599999999999
3.608333333333333,5.166033083420557,54.43599999999999
3.625,5.165190483315237,54.475
3.641666666666667,5.167803071103872,54.504000000000005
3.658333333333333,5.166184406630294,54.529
3.675,5.167883521733802,54.54900000000001
3.691666666666667,5.1686661833357155,54.583
3.708333333333333,5.166065812588268,54.61200000000001
3.725,5.169087367958632,54.64200000000001
3.7416666666666667,5.169290285199128,54.662000000000006
3.7583333333333333,5.166814802907148,54.68900000000001
3.775,5.173132381608115,54.718
3.791666666666667,5.17578171655418,54.748000000000005
3.808333333333333,5.177768003874832,54.783
3.825,5.180920554028598,54.808
3.841666666666667,5.17939283607244,54.838
3.858333333333333,5.180739629616129,54.868
3.875,5.181962545479622,54.893
3.891666666666667,5.1796132836603865,54.923
3.908333333333333,5.182487241730216,54.933
3.925,5.183141330978091,54.961999999999996
3.941666666666667,5.180651906293495,54.99099999999999
3.958333333333333,5.1835677100618955,55.010999999999996
3.975,5.182188113397333,55.04599999999999
3.9916666666666667,5.1816569238643035,55.080999999999996
4.008333333333333,5.184400848869074,55.12
4.025,5.182241810859597,55.13
4.041666666666667,5.18454533793321,55.153999999999996
4.058333333333334,5.184978045476235,55.174
4.075,5.182925808651351,55.199
4.091666666666667,5.185604647593056,55.224
4.108333333333333,5.186690143750181,55.248000000000005
4.125,5.18426555125934,55.266999999999996
4.141666666666667,5.187961696088401,55.306
4.158333333333333,5.187216912375442,55.33
4.175,5.186388500515814,55.35099999999999
4.191666666666666,5.189281080868285,55.38
4.208333333333333,5.187534634437686,55.398999999999994
4.225,5.1881823692243385,55.403999999999996
4.241666666666667,5.190103711882406,55.428000000000004
4.258333333333333,5.187853763364716,55.448
4.275,5.190293069670554,55.467
4.291666666666667,5.190875934381816,55.49099999999999
4.308333333333334,5.188624348459017,55.525
4.325,5.191435200650335,55.549
4.341666666666667,5.191485632976143,55.583
4.358333333333333,5.189619658982092,55.602
4.375,5.191939403410495,55.63099999999999
4.391666666666667,5.189164563690505,55.65599999999999
4.408333333333333,5.186320619510748,55.685
4.425,5.184034602541097,55.70399999999999
4.441666666666666,5.181934038554386,55.727999999999994
4.458333333333333,5.184074828507075,55.747
4.475,5.184971091238522,55.775999999999996
4.491666666666667,5.182364163351103,55.805
4.508333333333333,5.185425363940714,55.824
4.525,5.186145115065684,55.84799999999999
4.541666666666667,5.183922774218237,55.867
4.558333333333334,5.186196877231354,55.885999999999996
4.575,5.185513346629557,55.915
4.591666666666667,5.185427937163438,55.928999999999995
4.608333333333333,5.187574740161832,55.94799999999999
4.625,5.186468531445558,55.967
4.641666666666667,5.1882612364911544,55.983999999999995
4.658333333333333,5.189117847421543,56.003
4.675,5.187519345504346,56.027
4.691666666666666,5.1898233760395165,56.050999999999995
4.708333333333333,5.189750696633795,56.056
4.725,5.188337497663016,56.08
4.741666666666667,5.1899482449012195,56.089
4.758333333333333,5.190629205616074,56.103
4.775,5.189965948307329,56.108000000000004
4.791666666666667,5.190996868835241,56.104000000000006
4.808333333333334,5.190051370267133,56.123000000000005
4.825,5.193375762639156,56.132
4.841666666666667,5.196615853357901,56.151
4.858333333333333,5.1987921426314685,56.155
4.875,5.200808357814351,56.184000000000005
4.891666666666667,5.201125652707023,56.208
4.908333333333333,5.199481318540217,56.217
4.925,5.200926634433809,56.236000000000004
4.941666666666666,5.201107864197328,56.255
4.958333333333333,5.200195146203935,56.279
4.975,5.201500407782707,56.293
4.991666666666667,5.20182430586794,56.297
5.008333333333333,5.201600472167237,56.308
5.025,5.20193735020717,56.332
5.041666666666667,5.201430204609921,56.356
5.058333333333334,5.201918376720219,56.370999999999995
5.075,5.201741615753607,56.40999999999999
5.091666666666667,5.202032955700869,56.424
5.108333333333333,5.202542631316517,56.437999999999995
5.125,5.203512661648147,56.467
5.141666666666667,5.203323037458,56.486
5.158333333333334,5.203749226348496,56.51499999999999
5.175,5.203379753410192,56.534
5.191666666666666,5.203352863241978,56.55299999999999
5.208333333333334,5.20299792278383,56.577
5.225,5.203094167716156,56.582
5.241666666666666,5.202975630755544,56.626
5.258333333333334,5.203231876677162,56.626000000000005
5.275,5.203545378152647,56.635
5.291666666666666,5.204088321027412,56.659000000000006
5.308333333333334,5.2037119579379665,56.663999999999994
5.325,5.20379457263466,56.68299999999999
5.341666666666666,5.204162148818405,56.717
5.358333333333333,5.204770507824401,56.722
5.375,5.205126828023194,56.732
5.391666666666667,5.20514734506044,56.745999999999995
5.408333333333334,5.205929414547963,56.77499999999999
5.425,5.206250326894774,56.794
5.441666666666666,5.202542786720143,56.82299999999999
5.458333333333334,5.200187794017027,56.842
5.475,5.196909759961795,56.855999999999995
5.491666666666666,5.196266012623097,56.87999999999999
5.508333333333334,5.197305523797386,56.888999999999996
5.525,5.1967594114826765,56.91299999999999
5.541666666666666,5.1968633990964985,56.931999999999995
5.558333333333334,5.197377179249361,56.946
5.575,5.196339711790648,56.974999999999994
5.591666666666666,5.196703761338882,56.99
5.608333333333333,5.19687457901614,57.001999999999995
5.625,5.196478558170293,57.016000000000005
5.641666666666667,5.198103704183935,57.03
5.658333333333334,5.1976168552505655,57.044000000000004
5.675,5.197027110283613,57.053999999999995
5.691666666666666,5.198945999552888,57.077999999999996
5.708333333333334,5.197254485872892,57.093
5.725,5.19806323989519,57.111999999999995
5.741666666666666,5.199306832479486,57.126000000000005
5.758333333333334,5.198433394365659,57.165
5.775,5.198539180866033,57.17499999999999
5.791666666666666,5.19990724945686,57.19
5.808333333333334,5.19885508110876,57.195
5.825,5.199977033435451,57.21
5.841666666666666,5.19994674198266,57.228
5.858333333333333,5.199570295608273,57.242999999999995
5.875,5.2041756803351165,57.248000000000005
5.891666666666667,5.20613664398696,57.272
5.908333333333334,5.209016985551363,57.282
5.925,5.212607350688168,57.29599999999999
5.941666666666666,5.209876265275203,57.306
5.958333333333334,5.209589676439264,57.326
5.975,5.21136693105276,57.346
5.991666666666666,5.2092407183058915,57.361000000000004
6.008333333333334,5.209310760824101,57.370999999999995
6.025,5.210760669740413,57.376
6.041666666666666,5.20904085730908,57.386
6.058333333333334,5.210193812795387,57.41
6.075,5.210216556179241,57.41
6.091666666666666,5.2093378543686,57.44
6.108333333333333,5.211548530110321,57.463
6.125,5.210257624440524,57.483000000000004
6.141666666666667,5.209775884265318,57.493
6.158333333333334,5.213236064593704,57.492999999999995
6.175,5.2105310159591856,57.503
6.191666666666666,5.2095066053138055,57.528
6.208333333333334,5.212032949135991,57.538000000000004
6.225,5.209904254579138,57.553000000000004
6.241666666666666,5.210936049733755,57.562999999999995
6.258333333333334,5.212100822400476,57.583
6.275,5.209406513017463,57.593
6.291666666666666,5.210824039890648,57.603
6.308333333333334,5.211169319325787,57.618
6.325,5.2092838501477505,57.632999999999996
6.341666666666666,5.211342380446511,57.643
6.358333333333333,5.2097979019420855,57.648
6.375,5.209569116773507,57.67700000000001
6.391666666666667,5.211679382019795,57.687
6.408333333333334,5.209152847932966,57.707
6.425,5.208949327121365,57.732
6.441666666666666,5.212098011916932,57.75599999999999
6.458333333333334,5.209056177758085,57.775
6.475,5.209363733032038,57.78
6.491666666666666,5.208378072271691,57.8
6.508333333333334,5.202921509465946,57.8
6.525,5.201413499210709,57.815
6.541666666666666,5.201790529031985,57.815
6.558333333333334,5.199922680328112,57.84
6.575,5.20206945325922,57.855
6.591666666666666,5.2009182718114095,57.87
6.608333333333333,5.199896580408927,57.88
6.625,5.203052424568069,57.891999999999996
6.641666666666667,5.200842999131779,57.912
6.658333333333334,5.200074211929152,57.937000000000005
6.675,5.2033114853584985,57.957
6.691666666666666,5.200727135391725,57.967
6.708333333333334,5.201326392385455,57.977
6.725,5.202961993293666,57.972
6.741666666666666,5.201493563412552,57.97200000000001
6.758333333333334,5.2026059986222775,57.986999999999995
6.775,5.2031015870859525,57.992
6.791666666666666,5.200871442934768,58.007
6.808333333333334,5.203210641449853,58.016999999999996
6.825,5.202480217426004,58.027
6.841666666666666,5.201546996580227,58.032
6.858333333333333,5.204552122893804,58.037
6.875,5.202346972768091,58.037
6.891666666666667,5.201911642826254,58.062
6.908333333333334,5.2043896023656115,58.062
6.925,5.203730999729642,58.067
6.941666666666666,5.207692131752615,58.077
6.958333333333334,5.211978273825107,58.077
6.975,5.210586767357261,58.082
6.991666666666666,5.213266405914519,58.082
7.008333333333334,5.212812454338141,58.092
7.025,5.211444865938657,58.122
7.041666666666666,5.214660941530175,58.141999999999996
7.058333333333334,5.212610186073517,58.162
7.075,5.211811949973979,58.16400000000001
7.091666666666666,5.214761079159159,58.169
7.108333333333333,5.212503303922083,58.184
7.125,5.212410293585379,58.199
7.141666666666667,5.215122086290215,58.208999999999996
7.158333333333334,5.212561698881925,58.224000000000004
7.175,5.213706731651293,58.244
7.191666666666666,5.214937371311213,58.239
7.208333333333334,5.212904518527961,58.254
7.225,5.215738400484916,58.278999999999996
7.241666666666666,5.2151712647921284,58.284000000000006
7.258333333333334,5.213332842349376,58.294
7.275,5.2163685944307145,58.312
7.291666666666666,5.214409672979887,58.317
7.308333333333334,5.214046879612774,58.327
7.325,5.217341754442413,58.336999999999996
7.341666666666666,5.214619215381288,58.342
7.358333333333333,5.214777938878735,58.347
7.375,5.216770528999501,58.361999999999995
7.391666666666667,5.2141370559489255,58.372
7.408333333333334,5.215074600072652,58.387
7.425,5.215895115588371,58.382
7.441666666666666,5.214129076654424,58.407
7.458333333333334,5.2162394005255805,58.422
7.475,5.215699267210065,58.437
7.491666666666666,5.21406735790596,58.442
7.508333333333334,5.216199219532071,58.446999999999996
7.525,5.21410666047262,58.452
7.541666666666666,5.21134705227578,58.464
7.558333333333334,5.210952883285961,58.474
7.575,5.205473924855455,58.479
7.591666666666666,5.204652817218118,58.504
7.608333333333333,5.208610540527156,58.519000000000005
7.625,5.205887771455065,58.528999999999996
7.641666666666667,5.207336593932869,58.534
7.658333333333334,5.209046367751536,58.528999999999996
7.675,5.207447209988077,58.544
7.691666666666666,5.208936412439001,58.559000000000005
7.708333333333334,5.209765162283486,58.568999999999996
7.725,5.208296432847955,58.583999999999996
7.741666666666666,5.21048600019692,58.599
7.758333333333334,5.209697845776028,58.593999999999994
7.775,5.208909823255627,58.591
7.791666666666666,5.211617380073351,58.57599999999999
7.808333333333334,5.209481906748774,58.590999999999994
7.825,5.209330042279121,58.61600000000001
7.841666666666666,5.212337608863727,58.63099999999999
7.858333333333333,5.209999322588485,58.626000000000005
7.875,5.210654018467093,58.645999999999994
7.891666666666667,5.2129994123508565,58.65599999999999
7.908333333333334,5.210618926073791,58.67100000000001
7.925,5.2119675712726385,58.67099999999999
7.941666666666666,5.213577912873344,58.681000000000004
7.958333333333334,5.212054469568907,58.690999999999995
7.975,5.216352001219564,58.70099999999999
7.991666666666666,5.218286897269143,58.716
8.008333333333333,5.221472654346959,58.73299999999999
8.025,5.225410287213996,58.743
8.041666666666666,5.223005014777803,58.74799999999999
8.058333333333334,5.22316624925271,58.763000000000005
8.075,5.22564100269375,58.763000000000005
8.091666666666667,5.223807095034357,58.767999999999994
8.108333333333334,5.223730162868902,58.768
8.125,5.225693961717172,58.77799999999999
8.141666666666666,5.224648434694925,58.798
8.158333333333333,5.224877025951819,58.803000000000004
8.175,5.224923701341318,58.82299999999999
8.191666666666666,5.224089807167623,58.838
8.208333333333334,5.22537573059347,58.84799999999999
8.225,5.224360506247527,58.848
8.241666666666667,5.22418939500897,58.868
8.258333333333333,5.226295955568163,58.87799999999999
8.275,5.224323717869931,58.893
8.291666666666666,5.224552806639995,58.90599999999999
8.308333333333334,5.226747298528388,58.911
8.325,5.225218509720515,58.92999999999999
