TIME,POWER,TEMP
0.825,2.0370653166791595,39.099000000000004
0.8416666666666667,2.074944191819012,39.132999999999996
0.8583333333333333,2.1102890482190158,39.172
0.875,2.1451601847945496,39.201
0.8916666666666667,2.182383175335172,39.245
0.9083333333333333,2.217665614684,39.29599999999999
0.925,2.2525931840053492,39.354
0.9416666666666668,2.28973969585987,39.388000000000005
0.9583333333333333,2.324662428039692,39.451
0.975,2.3594108318866835,39.504
0.9916666666666667,2.3959896539061454,39.562999999999995
1.0083333333333333,2.4314202355378853,39.621
1.025,2.466546900606134,39.679
1.0416666666666667,2.5022034573630445,39.732
1.0583333333333333,2.537658470142475,39.805
1.075,2.5725607971833955,39.873
1.0916666666666668,2.6093166389262508,39.936
1.1083333333333334,2.644950088338336,39.999
1.125,2.6800099628276848,40.062
1.1416666666666666,2.716260909316317,40.135
1.1583333333333332,2.7512658132997,40.198
1.175,2.786016933652797,40.271
1.1916666666666667,2.82293977499374,40.344
1.2083333333333333,2.858748473866532,40.417
1.225,2.892872511391494,40.48
1.2416666666666667,2.929607498890258,40.547999999999995
1.2583333333333333,2.9647143765885313,40.611
1.275,2.9994902281530313,40.674
1.2916666666666665,3.0369550322333105,40.751999999999995
1.3083333333333333,3.072317655100071,40.815
1.325,3.106924391873976,40.882999999999996
1.3416666666666668,3.145073538319404,40.946
1.3583333333333334,3.179943446515263,41.013999999999996
1.375,3.2144151636155947,41.077
1.3916666666666666,3.2510090915192187,41.155
1.4083333333333332,3.2863253068491076,41.218
1.425,3.321062295207122,41.275999999999996
1.4416666666666667,3.3569800434623245,41.349
1.4583333333333335,3.3922588150192485,41.407
1.475,3.4268865471060157,41.485
1.4916666666666665,3.463640204680065,41.558
1.508333333333333,3.4992824944471805,41.620999999999995
1.525,3.5334754014862764,41.684
1.5416666666666665,3.5695012619904896,41.748000000000005
1.5583333333333333,3.5683910960237104,41.797
1.575,3.5683310867558986,41.851000000000006
1.5916666666666668,3.5684963335921567,41.897999999999996
1.6083333333333334,3.566832965660168,41.931999999999995
1.625,3.5665735180771314,41.968
1.6416666666666666,3.568259183139779,42.001999999999995
1.6583333333333332,3.5665195911011147,42.04599999999999
1.675,3.569625810027103,42.09
1.6916666666666667,3.574075668447098,42.123999999999995
1.7083333333333335,3.576580892062444,42.168
1.725,3.578268049113528,42.217
1.7416666666666665,3.5767803713160045,42.260999999999996
1.758333333333333,3.5743765365577134,42.275
1.775,3.571666847466811,42.318999999999996
1.7916666666666665,3.5715921799712653,42.363
1.8083333333333333,3.5710631744687764,42.417
1.825,3.5707334619268987,42.446
1.8416666666666668,3.5724599891794537,42.49400000000001
1.8583333333333334,3.5718432878898336,42.532999999999994
1.875,3.5721163969735126,42.577
1.8916666666666666,3.5735726405310886,42.605999999999995
1.9083333333333332,3.573082358300931,42.631
1.925,3.5731856821275465,42.666000000000004
1.9416666666666667,3.574912147807406,42.70499999999999
1.9583333333333335,3.574789326204236,42.733999999999995
1.975,3.5742690622412225,42.768
1.991666666666667,3.5761598048359855,42.802
2.0083333333333333,3.5754653990618044,42.832
2.025,3.5748112850444964,42.876
2.0416666666666665,3.5748813683717167,42.895999999999994
2.0583333333333336,3.5734240439530898,42.931
2.075,3.5738227022696907,42.951
2.091666666666667,3.5749927938174597,42.981
2.1083333333333334,3.5746618333600533,43.00599999999999
2.125,3.5750374347411666,43.045
2.1416666666666666,3.575939274473782,43.083999999999996
2.158333333333333,3.575321138197038,43.114
2.175,3.5750123220391594,43.144000000000005
2.1916666666666664,3.5769134270077285,43.178999999999995
2.2083333333333335,3.576632998104374,43.208999999999996
2.225,3.5759377089371975,43.239
2.2416666666666667,3.5778077793172725,43.25899999999999
2.2583333333333333,3.577771354984484,43.284000000000006
2.275,3.5717407584692866,43.31399999999999
2.2916666666666665,3.5729146062774872,43.343999999999994
2.3083333333333336,3.5723324655110567,43.37799999999999
2.325,3.571993789444676,43.38799999999999
2.341666666666667,3.5724481910492734,43.403
2.3583333333333334,3.5722159519278143,43.418
2.375,3.5725839138043938,43.446999999999996
2.3916666666666666,3.573139940554666,43.477
2.408333333333333,3.573097499274287,43.50199999999999
2.425,3.573155635861485,43.532
2.4416666666666664,3.5748183641693747,43.56399999999999
2.4583333333333335,3.5741954987449844,43.593
2.475,3.569997504526889,43.617999999999995
2.4916666666666667,3.5695264988982403,43.632999999999996
2.5083333333333333,3.56819524656123,43.657999999999994
2.525,3.566451685255266,43.683
2.5416666666666665,3.5682109953015995,43.711999999999996
2.5583333333333336,3.5677505939395258,43.742
2.575,3.5656192435896163,43.770999999999994
2.591666666666667,3.5671009242779776,43.79499999999999
2.608333333333333,3.567374298870943,43.81
2.625,3.5657436744831204,43.839
2.641666666666667,3.567767426613955,43.867999999999995
2.658333333333333,3.5682875215777354,43.882999999999996
2.675,3.5661964040914005,43.892999999999994
2.691666666666667,3.5679849128500023,43.922
2.708333333333333,3.569340695487905,43.942
2.725,3.5702164357106185,43.961999999999996
2.7416666666666667,3.5752996963107586,43.99099999999999
2.7583333333333333,3.5785627071568284,44.010999999999996
2.775,3.57734602841433,44.04
2.791666666666667,3.5793390894148818,44.06
2.808333333333333,3.5796434400791974,44.083999999999996
2.825,3.577994970709239,44.11299999999999
2.841666666666667,3.580520810125519,44.137
2.858333333333333,3.58023520830431,44.157
2.875,3.5778847250232757,44.172
2.891666666666667,3.58025549086627,44.196
2.908333333333333,3.5800358236936773,44.21099999999999
2.925,3.579140880632309,44.235
2.941666666666667,3.5811538452214484,44.25899999999999
2.958333333333333,3.580962282592669,44.288000000000004
2.975,3.579543817355939,44.317
2.9916666666666667,3.581725417839436,44.33599999999999
3.0083333333333333,3.580004362911348,44.36
3.025,3.57875531128721,44.379000000000005
3.041666666666667,3.580903369426082,44.403
3.058333333333333,3.5803246441643695,44.417
3.075,3.5788220245963287,44.446
3.091666666666667,3.580947132382505,44.475
3.108333333333333,3.5818032036438723,44.499
3.125,3.5804604715005097,44.528
3.141666666666667,3.582634818823229,44.532
3.158333333333333,3.5836425237149543,44.54599999999999
3.175,3.581989095396478,44.56100000000001
3.191666666666667,3.584601181744935,44.58
3.208333333333333,3.5847435952307416,44.599
3.225,3.583352493511613,44.633
3.2416666666666667,3.584761261661996,44.662
3.2583333333333333,3.5852311821904626,44.67400000000001
3.275,3.583950043963593,44.698
3.291666666666667,3.5862016666380128,44.703
3.308333333333333,3.5861651891410906,44.722
3.325,3.5849911682251316,44.736000000000004
3.341666666666667,3.584752889049856,44.755
3.358333333333333,3.582011165407886,44.773999999999994
3.375,3.577387704459135,44.788000000000004
3.391666666666667,3.57841239755734,44.792
3.408333333333333,3.5798931689369584,44.797000000000004
3.425,3.577761426052993,44.831
3.441666666666667,3.57942429476945,44.85
3.458333333333333,3.580053559579187,44.864
3.475,3.578438764964236,44.882999999999996
3.4916666666666667,3.5815913428540718,44.90700000000001
3.5083333333333333,3.5812847166019335,44.907
3.525,3.5793660304906165,44.91700000000001
3.541666666666667,3.5814594918580926,44.926
3.558333333333333,3.581339972616383,44.95
3.575,3.579068319491071,44.979
3.591666666666667,3.580294680377803,44.98799999999999
3.608333333333333,3.580906305534213,45.00200000000001
3.625,3.578841693593651,45.021
3.641666666666667,3.5818243225678947,45.035
3.658333333333333,3.581781002127697,45.059
3.675,3.579212939197074,45.077999999999996
3.691666666666667,3.582097558223252,45.08700000000001
3.708333333333333,3.5833743764150876,45.111000000000004
3.725,3.5823421229800196,45.115
3.7416666666666667,3.5840984845773933,45.129
3.7583333333333333,3.584344340194544,45.147999999999996
3.775,3.5836374325057445,45.162000000000006
3.791666666666667,3.58859672130679,45.181000000000004
3.808333333333333,3.591802678641954,45.195
3.825,3.591308585969964,45.199
3.841666666666667,3.5940789889250526,45.20799999999999
3.858333333333333,3.593972383032424,45.227000000000004
3.875,3.591669551517293,45.251000000000005
3.891666666666667,3.594377212256355,45.265
3.908333333333333,3.594474727771727,45.284
3.925,3.5920241134700825,45.30299999999999
3.941666666666667,3.594192369358522,45.32200000000001
3.958333333333333,3.594928811757744,45.336000000000006
3.975,3.593075959291789,45.356
3.9916666666666667,3.594932834083833,45.395
4.008333333333333,3.595398205083474,45.413999999999994
4.025,3.5930098180812684,45.433
4.041666666666667,3.5941702331866696,45.443000000000005
4.058333333333334,3.5950846153467513,45.457
4.075,3.593813963459902,45.471000000000004
4.091666666666667,3.5954613832881948,45.485
4.108333333333333,3.5953202241302624,45.49000000000001
4.125,3.593115248045219,45.486
4.141666666666667,3.5952030897970166,45.51000000000001
4.158333333333333,3.594133728248481,45.52400000000001
4.175,3.5931935790229717,45.543
4.191666666666666,3.5947011052225726,45.567
4.208333333333333,3.594336669435088,45.582
4.225,3.5931128196354054,45.591
4.241666666666667,3.5946415114894283,45.606
4.258333333333333,3.595511158515328,45.611000000000004
4.275,3.594132935151257,45.645
4.291666666666667,3.5964944600733837,45.665000000000006
4.308333333333334,3.5963284250272625,45.67000000000001
4.325,3.595262957114534,45.679
4.341666666666667,3.596885922629839,45.708
4.358333333333333,3.5973109033667767,45.723
4.375,3.5969231962789165,45.73700000000001
4.391666666666667,3.5944982524320586,45.761
4.408333333333333,3.591768567901428,45.776
4.425,3.588389277736529,45.79
4.441666666666666,3.587746924114413,45.8
4.458333333333333,3.5868848218177294,45.824000000000005
4.475,3.587678611301964,45.834
4.491666666666667,3.5880142361576315,45.834
4.508333333333333,3.5882115853264467,45.854000000000006
4.525,3.5888587914708956,45.868
4.541666666666667,3.588798579665908,45.882000000000005
4.558333333333334,3.5881681282015085,45.882000000000005
4.575,3.5882763936415465,45.901
4.591666666666667,3.587812912688895,45.911
4.608333333333333,3.5884131128046817,45.931000000000004
4.625,3.588944353456888,45.941
4.641666666666667,3.5888995034185847,45.951
4.658333333333333,3.5880513409425405,45.961000000000006
4.675,3.5889616008115657,45.971000000000004
4.691666666666666,3.5891260342862,45.980999999999995
4.708333333333333,3.5887669081676017,45.996
4.725,3.589154354431407,46.006
4.741666666666667,3.5891603568365413,46.026
4.758333333333333,3.589024426140993,46.036
4.775,3.5892944205683195,46.04599999999999
4.791666666666667,3.5893269811641635,46.056000000000004
4.808333333333334,3.589377784658485,46.076
4.825,3.5897270983268466,46.091
4.841666666666667,3.592596373132315,46.105
4.858333333333333,3.595050890765338,46.115
4.875,3.596653529716657,46.12500000000001
4.891666666666667,3.5971559236449853,46.13
4.908333333333333,3.5976793468112858,46.14
4.925,3.5980923278136987,46.144
4.941666666666666,3.598450946868015,46.148999999999994
4.958333333333333,3.5975482077774648,46.178000000000004
4.975,3.5982641963706192,46.183
4.991666666666667,3.5995944626711998,46.213
5.008333333333333,3.59778341153565,46.233000000000004
5.025,3.597494414551004,46.238
5.041666666666667,3.5992643415890875,46.258
5.058333333333334,3.5970548979276957,46.278
5.075,3.595494837218177,46.292
5.091666666666667,3.5974785766215733,46.292
5.108333333333333,3.5959855229711253,46.292
5.125,3.5952990018747233,46.30200000000001
5.141666666666667,3.5968554393279293,46.312000000000005
5.158333333333334,3.5950412525758493,46.312
5.175,3.5953329943490866,46.321999999999996
5.191666666666666,3.5968594549320723,46.346
5.208333333333334,3.594621919786835,46.361000000000004
5.225,3.595296291930296,46.371
5.241666666666666,3.597837993726724,46.371
5.258333333333334,3.595777501930063,46.391000000000005
5.275,3.5954581824211447,46.395999999999994
5.291666666666666,3.597118571312858,46.406000000000006
5.308333333333334,3.59377011989162,46.42100000000001
5.325,3.593476083771871,46.426
5.341666666666666,3.596392270117083,46.431000000000004
5.358333333333333,3.593069713303609,46.446000000000005
5.375,3.591712027632246,46.446000000000005
5.391666666666667,3.59469062188189,46.461000000000006
5.408333333333334,3.592449269197864,46.486000000000004
5.425,3.5915470966316683,46.49100000000001
5.441666666666666,3.5923557152315273,46.496
5.458333333333334,3.5866422127196036,46.496
5.475,3.583929692016594,46.511
5.491666666666666,3.584758470093962,46.536
5.508333333333334,3.581742330292533,46.556000000000004
5.525,3.581506542348324,46.566
5.541666666666666,3.583638621340225,46.576
5.558333333333334,3.580162984949674,46.576
5.575,3.5796094209781226,46.591
5.591666666666666,3.5822488929365193,46.606
5.608333333333333,3.579824610237413,46.611000000000004
5.625,3.579557751136645,46.621
5.641666666666667,3.582653796199249,46.621
5.658333333333334,3.580744363287947,46.621
5.675,3.581533625048845,46.631
5.691666666666666,3.5845328187469763,46.646
5.708333333333334,3.583096319638828,46.661
5.725,3.5815452165994035,46.666000000000004
5.741666666666666,3.5831912065447025,46.666000000000004
5.758333333333334,3.5817509617985723,46.676
5.775,3.5804143586765838,46.691
5.791666666666666,3.5817816906055544,46.720000000000006
5.808333333333334,3.580880066650132,46.725
5.825,3.580607872398262,46.74
5.841666666666666,3.581635791898482,46.745
5.858333333333333,3.5818831918825067,46.73500000000001
5.875,3.5837542620799057,46.74000000000001
5.891666666666667,3.5872959768187593,46.745
5.908333333333334,3.5907242984782255,46.745
5.925,3.590015963936584,46.77
5.941666666666666,3.590992067679179,46.76500000000001
5.958333333333334,3.5908951872010535,46.765
5.975,3.59017236238078,46.775
5.991666666666666,3.590749593336601,46.79
6.008333333333334,3.5915061628318807,46.79
6.025,3.5889466863962776,46.790000000000006
6.041666666666666,3.5898047217913414,46.81
6.058333333333334,3.5916294830796693,46.81
6.075,3.588849893138514,46.82
6.091666666666666,3.5889632528769306,46.845
6.108333333333333,3.591296122750466,46.85500000000001
6.125,3.589150324779062,46.86
6.141666666666667,3.5888382325692887,46.865
6.158333333333334,3.5924366444060265,46.885
6.175,3.589566737019694,46.885
6.191666666666666,3.589290022409084,46.89500000000001
6.208333333333334,3.5929802202009737,46.91
6.225,3.5911246566941095,46.93
6.241666666666666,3.5910400793360138,46.94
6.258333333333334,3.594607702206113,46.945
6.275,3.591267635083487,46.94000000000001
6.291666666666666,3.5903509000731084,46.95
6.308333333333334,3.593502274253725,46.955
6.325,3.591411190067589,46.965
6.341666666666666,3.5910690620787244,46.98
6.358333333333333,3.5938701306425207,47.00000000000001
6.375,3.5914916167422892,47.0
6.391666666666667,3.5927018702692153,47.005
6.408333333333334,3.595512402958266,46.995
6.425,3.5929704669242124,47.00500000000001
6.441666666666666,3.592095679208512,47.01500000000001
6.458333333333334,3.5943154226351393,47.022
6.475,3.591713914321906,47.022
6.491666666666666,3.590323157416632,47.037000000000006
6.508333333333334,3.5908844841838157,47.04200000000001
6.525,3.5856944487563975,47.05200000000001
6.541666666666666,3.5840862111217087,47.047
6.558333333333334,3.586931910423682,47.052
6.575,3.5844685144806556,47.047000000000004
6.591666666666666,3.584935672789847,47.06700000000001
6.608333333333333,3.587411527795732,47.07200000000001
6.625,3.5854751457052054,47.082
6.641666666666667,3.584482719317994,47.097
6.658333333333334,3.585689594463605,47.092000000000006
6.675,3.5847387121572813,47.09700000000001
6.691666666666666,3.584173673862598,47.117000000000004
6.708333333333334,3.5860296854415505,47.117
6.725,3.5858952289741968,47.111999999999995
6.741666666666666,3.5849775913999924,47.132000000000005
6.758333333333334,3.5864767741499044,47.162000000000006
6.775,3.586926993522344,47.17700000000001
6.791666666666666,3.5855707161153574,47.177
6.808333333333334,3.5867447042333884,47.172
6.825,3.5871246530167955,47.18200000000001
6.841666666666666,3.585543446060706,47.18200000000001
6.858333333333333,3.587156603532684,47.187000000000005
6.875,3.5881896993488454,47.187
6.891666666666667,3.5860126356751945,47.192
6.908333333333334,3.5869156322867264,47.202000000000005
6.925,3.5904629346020367,47.202000000000005
6.941666666666666,3.5914427871782264,47.22200000000001
6.958333333333334,3.5955665663387917,47.222
6.975,3.599024794558641,47.222
6.991666666666666,3.596287334290361,47.227000000000004
7.008333333333334,3.5963198266545544,47.242000000000004
7.025,3.598781408952685,47.251999999999995
7.041666666666666,3.596887111722712,47.262
7.058333333333334,3.5981889625282037,47.266999999999996
7.075,3.6008925248160946,47.25200000000001
7.091666666666666,3.5986681629642465,47.257000000000005
7.108333333333333,3.599170559942644,47.277
7.125,3.6017553662713215,47.287
7.141666666666667,3.5986811970241024,47.297
7.158333333333334,3.599040199728926,47.29200000000001
7.175,3.6013339717439745,47.297000000000004
7.191666666666666,3.598362392261951,47.297
7.208333333333334,3.598404010617973,47.297
7.225,3.6020224404913215,47.312
7.241666666666666,3.599359189282163,47.32
7.258333333333334,3.5988551463354845,47.33000000000001
7.275,3.6009911617716397,47.33
7.291666666666666,3.5979814695532464,47.34
7.308333333333334,3.598035256928532,47.345
7.325,3.6004464895379495,47.345
7.341666666666666,3.5969272748966348,47.34000000000001
7.358333333333333,3.597073754701158,47.345
7.375,3.6007055459096717,47.345
7.391666666666667,3.5990699514247098,47.35
7.408333333333334,3.598928111357651,47.36
7.425,3.6011079046874652,47.35500000000001
7.441666666666666,3.599773001166754,47.36
7.458333333333334,3.600567190903776,47.365
7.475,3.6023930632470935,47.38
7.491666666666666,3.6005912810199,47.385
7.508333333333334,3.6016333356329255,47.39000000000001
7.525,3.603176378056251,47.41
7.541666666666666,3.599161782735227,47.41
7.558333333333334,3.597230434376147,47.425
7.575,3.595764110578207,47.43500000000001
7.591666666666666,3.5935859823591363,47.43000000000001
7.608333333333333,3.5924527939387865,47.43
7.625,3.5939804318449955,47.44
7.641666666666667,3.5924764199016717,47.445
7.658333333333334,3.5917801682108372,47.45000000000001
7.675,3.59374961598718,47.46500000000001
7.691666666666666,3.594397706266618,47.47
7.708333333333334,3.592265642648454,47.47
7.725,3.593727730288859,47.48
7.741666666666666,3.595488027142894,47.48000000000001
7.758333333333334,3.594027377543685,47.470000000000006
7.775,3.594456442833397,47.48
7.791666666666666,3.596009170458397,47.49
7.808333333333334,3.5940077458136646,47.49
7.825,3.5944522219193833,47.50000000000001
7.841666666666666,3.595693893760021,47.519000000000005
7.858333333333333,3.5927421257736127,47.513999999999996
7.875,3.5918770876952824,47.519000000000005
7.891666666666667,3.59374417598284,47.52400000000001
7.908333333333334,3.5912903221833985,47.52400000000001
7.925,3.5904093224597204,47.53900000000001
7.941666666666666,3.5934762684351496,47.563
7.958333333333334,3.5912066619454324,47.568000000000005
7.975,3.5936798676689508,47.578
7.991666666666666,3.600183701241986,47.578
8.008333333333333,3.6000857096356498,47.58300000000001
8.025,3.6021168972919666,47.568000000000005
8.041666666666666,3.6058807748212733,47.578
8.058333333333334,3.6016514239404334,47.591
8.075,3.6018895817799264,47.611000000000004
8.091666666666667,3.604438322594506,47.611
8.108333333333334,3.601860761156126,47.611000000000004
8.125,3.6022872323030732,47.614000000000004
8.141666666666666,3.6056468210581754,47.614000000000004
8.158333333333333,3.6028758573469877,47.604
8.175,3.6018526259193875,47.608999999999995
8.191666666666666,3.604495230804547,47.604000000000006
8.208333333333334,3.60206155442593,47.614000000000004
8.225,3.6013473685538053,47.60900000000001
8.241666666666667,3.6029823768549774,47.608999999999995
8.258333333333333,3.599753450130533,47.608999999999995
8.275,3.598961705600829,47.61900000000001
